# tabulater electron energy spectrum for Al^27, total energy, MeV
# from R. Watanabe et al, Atomic Data And Nuclear Data Tables 54, 165-178 (1993)
 1   0.485e-4
 2   0.203e-3
 3   0.447e-3
 4   0.773e-3
 5   0.117e-2
 6   0.164e-2
 7   0.217e-2
 8   0.276e-2
 9   0.341e-2
10   0.410e-2
11   0.485e-2
12   0.563e-2
13   0.646e-2
14   0.733e-2
15   0.823e-2
16   0.916e-2
17   0.101e-1
18   0.111e-1
19   0.121e-1
20   0.131e-1
21   0.142e-1
22   0.152e-1
23   0.163e-1
24   0.174e-1
25   0.185e-1
26   0.195e-1
27   0.206e-1
28   0.217e-1
29   0.227e-1
30   0.238e-1
31   0.248e-1
32   0.258e-1
33   0.268e-1
34   0.278e-1
35   0.287e-1
36   0.296e-1
37   0.305e-1
38   0.313e-1
39   0.321e-1
40   0.328e-1
41   0.335e-1
42   0.340e-1
43   0.346e-1
44   0.350e-1
45   0.352e-1
46   0.353e-1
47   0.350e-1
48   0.341e-1
49   0.323e-1
50   0.291e-1
51   0.243e-1
52   0.181e-1
53   0.118e-1
54   0.688e-2
55   0.367e-2
56   0.188e-2
57   0.953e-3
58   0.491e-3
59   0.259e-3
60   0.141e-3
65   0.997e-5
70   0.111e-5
75   0.154e-6
80   0.228e-7
85   0.318e-8
90   0.354e-9
95   0.233e-10
100  0.358e-12
